Time,ATR,LongStop,ShortStop,LongStopPrev,ShortStopPrev
2024-03-27 13:45:00,1.3000000000000114,188.22,190.82000000000002,188.22,190.82000000000002
2024-03-27 14:00:00,3.400000000000034,188.22,190.82000000000002,188.22,190.82000000000002
2024-03-27 14:15:00,2.840000000000032,184.09999999999997,189.78000000000003,188.22,190.82000000000002
2024-03-27 14:30:00,2.0399999999999636,184.44000000000003,188.51999999999995,184.09999999999997,189.78000000000003
2024-03-27 14:45:00,1.759999999999991,185.03,188.51999999999995,184.44000000000003,188.51999999999995
2024-03-27 15:00:00,1.740000000000009,185.54,188.51999999999995,185.03,188.51999999999995
2024-03-27 15:15:00,1.079999999999984,186.25000000000003,188.41,185.54,188.51999999999995
2024-03-27 15:30:00,1.6200000000000045,186.25000000000003,188.18,186.25000000000003,188.41
2024-03-27 15:45:00,4.539999999999964,186.25000000000003,188.18,186.25000000000003,188.18
2024-03-27 16:00:00,3.2399999999999523,180.92000000000004,187.39999999999995,186.25000000000003,188.18
2024-03-27 16:15:00,4.180000000000007,181.28,187.39999999999995,180.92000000000004,187.39999999999995
2024-03-27 16:30:00,2.1200000000000045,183.24,187.39999999999995,181.28,187.39999999999995
2024-03-27 16:45:00,2.3799999999999955,183.69,187.39999999999995,183.24,187.39999999999995
2024-03-27 17:00:00,1.8600000000000136,184.57,187.39999999999995,183.69,187.39999999999995
2024-03-27 17:15:00,2.0600000000000023,184.72,187.39999999999995,184.57,187.39999999999995
2024-03-27 17:30:00,1.9399999999999977,184.72,187.39999999999995,184.72,187.39999999999995
2024-03-27 17:45:00,1.6200000000000045,184.96,187.39999999999995,184.72,187.39999999999995
2024-03-27 18:00:00,1.6999999999999886,185.20000000000002,187.39999999999995,184.96,187.39999999999995
2024-03-27 18:15:00,1.900000000000034,185.20000000000002,187.39999999999995,185.20000000000002,187.39999999999995
2024-03-27 18:30:00,4.240000000000009,185.20000000000002,187.39999999999995,185.20000000000002,187.39999999999995
2024-03-27 18:45:00,2.0400000000000205,186.48999999999998,190.57000000000002,185.20000000000002,187.39999999999995
2024-03-27 19:00:00,2.8799999999999955,186.48999999999998,190.25,186.48999999999998,190.57000000000002
2024-03-27 19:15:00,1.2200000000000273,186.48999999999998,188.47000000000003,186.48999999999998,190.25
2024-03-27 19:30:00,2.5200000000000387,186.48999999999998,188.47000000000003,186.48999999999998,188.47000000000003
2024-03-27 19:45:00,1.759999999999991,186.48999999999998,188.47000000000003,186.48999999999998,188.47000000000003
2024-03-27 20:00:00,6.819999999999993,186.48999999999998,188.47000000000003,186.48999999999998,188.47000000000003
2024-03-27 20:15:00,5.359999999999957,186.48999999999998,195.20999999999995,186.48999999999998,188.47000000000003
2024-03-27 20:30:00,6.0400000000000205,186.48999999999998,194.49,186.48999999999998,195.20999999999995
2024-03-27 20:45:00,6.920000000000016,186.48999999999998,192.56,186.48999999999998,194.49
2024-03-27 21:00:00,12.079999999999984,170.53000000000003,192.56,186.48999999999998,192.56
2024-03-27 21:15:00,7.0400000000000205,177.26,191.34000000000003,170.53000000000003,192.56
2024-03-27 21:30:00,4.979999999999961,179.97000000000003,189.92999999999995,177.26,191.34000000000003
2024-03-27 21:45:00,3.339999999999975,181.79000000000002,188.46999999999997,179.97000000000003,189.92999999999995
2024-03-27 22:00:00,5.279999999999973,181.79000000000002,188.39,181.79000000000002,188.46999999999997
2024-03-27 22:15:00,2.8000000000000114,181.79000000000002,184.8,181.79000000000002,188.39
2024-03-27 22:30:00,2.920000000000016,181.79000000000002,184.8,181.79000000000002,184.8
2024-03-27 22:45:00,2.0400000000000205,181.79000000000002,183.15000000000003,181.79000000000002,184.8
2024-03-27 23:00:00,5.399999999999977,174.99,183.15000000000003,181.79000000000002,183.15000000000003
2024-03-27 23:15:00,4.3799999999999955,178.05,183.15000000000003,174.99,183.15000000000003
2024-03-27 23:30:00,1.8599999999999568,180.98000000000005,183.15000000000003,178.05,183.15000000000003
2024-03-27 23:45:00,1.8199999999999932,181.15,183.15000000000003,180.98000000000005,183.15000000000003
2024-03-28 00:00:00,2.599999999999966,181.18000000000004,183.15000000000003,181.15,183.15000000000003
2024-03-28 00:15:00,1.4399999999999977,182.27,185.15,181.18000000000004,183.15000000000003
2024-03-28 00:30:00,1.0600000000000023,182.81,184.93,182.27,185.15
2024-03-28 00:45:00,2.9399999999999977,182.81,184.93,182.81,184.93
2024-03-28 01:00:00,3.319999999999993,182.81,184.93,182.81,184.93
2024-03-28 01:15:00,1.4399999999999977,180.89000000000001,183.77,182.81,184.93
2024-03-28 01:30:00,1.9600000000000364,180.89000000000001,183.77,180.89000000000001,183.77
2024-03-28 01:45:00,4.180000000000007,180.89000000000001,183.77,180.89000000000001,183.77
2024-03-28 02:00:00,3.5600000000000023,180.89000000000001,183.77,180.89000000000001,183.77
2024-03-28 02:15:00,1.420000000000016,181.30999999999997,183.77,180.89000000000001,183.77
2024-03-28 02:30:00,1.5400000000000205,181.30999999999997,183.77,181.30999999999997,183.77
2024-03-28 02:45:00,1.3799999999999955,181.30999999999997,183.77,181.30999999999997,183.77
2024-03-28 03:00:00,3.3000000000000114,181.30999999999997,183.77,181.30999999999997,183.77
2024-03-28 03:15:00,1.4600000000000364,182.79999999999995,185.72000000000003,181.30999999999997,183.77
2024-03-28 03:30:00,1.240000000000009,183.35,185.72000000000003,182.79999999999995,185.72000000000003
2024-03-28 03:45:00,1.5,183.69,185.72000000000003,183.35,185.72000000000003
2024-03-28 04:00:00,1.3000000000000114,183.91,185.72000000000003,183.69,185.72000000000003
2024-03-28 04:15:00,1.6800000000000068,183.91,185.72000000000003,183.91,185.72000000000003
2024-03-28 04:30:00,1.3600000000000136,183.91,185.72000000000003,183.91,185.72000000000003
2024-03-28 04:45:00,1.1999999999999886,183.91,185.54,183.91,185.72000000000003
2024-03-28 05:00:00,1.579999999999984,183.91,185.54,183.91,185.54
2024-03-28 05:15:00,1.5200000000000387,183.91,185.54,183.91,185.54
2024-03-28 05:30:00,1.3999999999999773,184.28000000000003,185.54,183.91,185.54
2024-03-28 05:45:00,7.640000000000043,184.28000000000003,194.61000000000004,184.28000000000003,185.54
2024-03-28 06:00:00,2.480000000000018,184.28000000000003,188.34000000000003,184.28000000000003,194.61000000000004
2024-03-28 06:15:00,1.1399999999999864,184.43,186.70999999999998,184.28000000000003,188.34000000000003
2024-03-28 06:30:00,2.0600000000000023,184.43,186.70999999999998,184.43,186.70999999999998
2024-03-28 06:45:00,3.5,184.43,186.70999999999998,184.43,186.70999999999998
2024-03-28 07:00:00,2.3000000000000114,184.43,186.70999999999998,184.43,186.70999999999998
2024-03-28 07:15:00,3.9599999999999795,184.43,186.70999999999998,184.43,186.70999999999998
2024-03-28 07:30:00,3.920000000000016,184.43,189.74,184.43,186.70999999999998
2024-03-28 07:45:00,2.8000000000000114,184.43,189.33,184.43,189.74
2024-03-28 08:00:00,5.240000000000009,184.43,189.33,184.43,189.33
2024-03-28 08:15:00,1.8600000000000136,184.43,186.16000000000003,184.43,189.33
2024-03-28 08:30:00,3.3600000000000136,181.20999999999998,186.16000000000003,184.43,186.16000000000003
2024-03-28 08:45:00,1.7600000000000477,182.54999999999995,186.07000000000005,181.20999999999998,186.16000000000003
2024-03-28 09:00:00,2.0600000000000023,182.9,186.07000000000005,182.54999999999995,186.07000000000005
2024-03-28 09:15:00,3.5200000000000387,182.9,186.07000000000005,182.9,186.07000000000005
2024-03-28 09:30:00,3.579999999999984,182.9,185.02999999999997,182.9,186.07000000000005
2024-03-28 09:45:00,2.0600000000000023,179.96,184.08,182.9,185.02999999999997
2024-03-28 10:00:00,1.599999999999966,180.42000000000004,183.61999999999998,179.96,184.08
2024-03-28 10:15:00,1.900000000000034,180.42000000000004,183.47000000000003,180.42000000000004,183.61999999999998
2024-03-28 10:30:00,2.2600000000000477,180.42000000000004,183.45000000000005,180.42000000000004,183.47000000000003
2024-03-28 10:45:00,2.3799999999999955,180.42000000000004,183.45000000000005,180.42000000000004,183.45000000000005
2024-03-28 11:00:00,2.1399999999999864,180.93,183.45000000000005,180.42000000000004,183.45000000000005
2024-03-28 11:15:00,1.5600000000000023,181.93,183.45000000000005,180.93,183.45000000000005
2024-03-28 11:30:00,1.740000000000009,182.01999999999998,185.5,181.93,183.45000000000005
2024-03-28 11:45:00,0.8000000000000114,182.89,184.49,182.01999999999998,185.5
2024-03-28 12:00:00,0.9200000000000159,182.89,184.49,182.89,184.49
2024-03-28 12:15:00,2.2199999999999704,182.89,184.49,182.89,184.49
2024-03-28 12:30:00,2.5400000000000205,182.89,184.49,182.89,184.49
2024-03-28 12:45:00,1.740000000000009,182.89,184.49,182.89,184.49
2024-03-28 13:00:00,2.240000000000009,182.89,184.49,182.89,184.49
2024-03-28 13:15:00,4.28000000000003,182.89,184.49,182.89,184.49
2024-03-28 13:30:00,2.419999999999959,184.47000000000003,189.30999999999995,182.89,184.49
2024-03-28 13:45:00,1.9599999999999795,184.96,188.87999999999997,184.47000000000003,189.30999999999995
2024-03-28 14:00:00,2.0200000000000387,184.96,188.50000000000003,184.96,188.87999999999997
2024-03-28 14:15:00,1.5600000000000023,185.17,188.29,184.96,188.50000000000003
2024-03-28 14:30:00,2.1399999999999864,185.17,188.29,185.17,188.29
2024-03-28 14:45:00,1.3199999999999932,186.01000000000002,188.29,185.17,188.29
2024-03-28 15:00:00,2.5400000000000205,186.01000000000002,188.29,186.01000000000002,188.29
2024-03-28 15:15:00,1.6200000000000045,186.01000000000002,188.29,186.01000000000002,188.29
2024-03-28 15:30:00,2.0200000000000387,186.01000000000002,188.29,186.01000000000002,188.29
2024-03-28 15:45:00,3.5600000000000023,186.01000000000002,188.29,186.01000000000002,188.29
2024-03-28 16:00:00,3.0400000000000205,186.01000000000002,188.29,186.01000000000002,188.29
2024-03-28 16:15:00,1.160000000000025,186.06999999999996,188.29,186.01000000000002,188.29
2024-03-28 16:30:00,1.7799999999999727,186.06999999999996,188.29,186.06999999999996,188.29
2024-03-28 16:45:00,1.3199999999999932,186.16,188.29,186.06999999999996,188.29
2024-03-28 17:00:00,2.3000000000000114,186.16,188.29,186.16,188.29
2024-03-28 17:15:00,2.2399999999999523,186.16,188.09999999999997,186.16,188.29
2024-03-28 17:30:00,1.3600000000000136,184.92,187.64000000000001,186.16,188.09999999999997
2024-03-28 17:45:00,1.599999999999966,184.92,187.64000000000001,184.92,187.64000000000001
2024-03-28 18:00:00,2.2199999999999704,184.92,187.64000000000001,184.92,187.64000000000001
2024-03-28 18:15:00,2.0600000000000023,184.92,187.64000000000001,184.92,187.64000000000001
2024-03-28 18:30:00,3.3000000000000114,184.92,187.64000000000001,184.92,187.64000000000001
2024-03-28 18:45:00,1.5,184.92,186.89,184.92,187.64000000000001
2024-03-28 19:00:00,3.319999999999993,184.92,186.89,184.92,186.89
2024-03-28 19:15:00,1.3999999999999773,183.04000000000002,185.83999999999997,184.92,186.89
2024-03-28 19:30:00,2.339999999999975,183.04000000000002,185.83999999999997,183.04000000000002,185.83999999999997
2024-03-28 19:45:00,2.5,183.04000000000002,185.83999999999997,183.04000000000002,185.83999999999997
2024-03-28 20:00:00,2.680000000000007,183.04000000000002,185.83999999999997,183.04000000000002,185.83999999999997
2024-03-28 20:15:00,4.660000000000025,183.04000000000002,185.83999999999997,183.04000000000002,185.83999999999997
2024-03-28 20:30:00,4.3799999999999955,183.04000000000002,185.83999999999997,183.04000000000002,185.83999999999997
2024-03-28 20:45:00,2.259999999999991,183.76000000000002,185.83999999999997,183.04000000000002,185.83999999999997
2024-03-28 21:00:00,3.4399999999999977,183.76000000000002,189.19,183.76000000000002,185.83999999999997
2024-03-28 21:15:00,2.579999999999984,183.89000000000001,189.04999999999998,183.76000000000002,189.19
2024-03-28 21:30:00,2.5400000000000205,184.90999999999997,189.04999999999998,183.89000000000001,189.04999999999998
2024-03-28 21:45:00,4.019999999999982,184.92000000000002,189.04999999999998,184.90999999999997,189.04999999999998
2024-03-28 22:00:00,3.9799999999999613,184.92000000000002,189.04999999999998,184.92000000000002,189.04999999999998
2024-03-28 22:15:00,3.0400000000000205,184.92000000000002,189.02,184.92000000000002,189.04999999999998
2024-03-28 22:30:00,2.180000000000007,184.92000000000002,189.02,184.92000000000002,189.02
2024-03-28 22:45:00,3.0,184.92000000000002,189.02,184.92000000000002,189.02
2024-03-28 23:00:00,3.4599999999999795,184.92000000000002,189.02,184.92000000000002,189.02
2024-03-28 23:15:00,1.8199999999999932,184.92000000000002,188.35999999999999,184.92000000000002,189.02
2024-03-28 23:30:00,1.4399999999999977,184.92000000000002,187.59,184.92000000000002,188.35999999999999
2024-03-28 23:45:00,3.0399999999999636,184.92000000000002,187.59,184.92000000000002,187.59
2024-03-29 00:00:00,1.8199999999999932,184.92000000000002,186.9,184.92000000000002,187.59
2024-03-29 00:15:00,1.900000000000034,184.92000000000002,186.9,184.92000000000002,186.9
2024-03-29 00:30:00,1.0600000000000023,184.92000000000002,186.09,184.92000000000002,186.9
2024-03-29 00:45:00,1.1800000000000068,184.92000000000002,186.09,184.92000000000002,186.09
2024-03-29 01:00:00,3.0,184.92000000000002,186.09,184.92000000000002,186.09
2024-03-29 01:15:00,1.3600000000000136,185.38,188.10000000000002,184.92000000000002,186.09
2024-03-29 01:30:00,1.740000000000009,185.38,187.89000000000001,185.38,188.10000000000002
2024-03-29 01:45:00,1.2799999999999727,185.38,187.52999999999997,185.38,187.89000000000001
2024-03-29 02:00:00,2.0600000000000023,185.38,187.52999999999997,185.38,187.52999999999997
2024-03-29 02:15:00,1.4399999999999977,185.38,187.52999999999997,185.38,187.52999999999997
2024-03-29 02:30:00,1.3000000000000114,185.38,187.52999999999997,185.38,187.52999999999997
2024-03-29 02:45:00,1.080000000000041,185.38,187.35000000000005,185.38,187.52999999999997
2024-03-29 03:00:00,2.519999999999982,185.38,187.35000000000005,185.38,187.35000000000005
2024-03-29 03:15:00,2.180000000000007,185.38,187.35000000000005,185.38,187.35000000000005
2024-03-29 03:30:00,2.5,185.58,187.35000000000005,185.38,187.35000000000005
2024-03-29 03:45:00,1.3999999999999773,186.15000000000003,188.95,185.58,187.35000000000005
2024-03-29 04:00:00,2.6200000000000045,186.15000000000003,188.95,186.15000000000003,188.95
2024-03-29 04:15:00,1.400000000000034,187.26999999999995,188.95,186.15000000000003,188.95
2024-03-29 04:30:00,1.1200000000000045,187.26999999999995,188.95,187.26999999999995,188.95
2024-03-29 04:45:00,2.340000000000032,187.26999999999995,188.95,187.26999999999995,188.95
2024-03-29 05:00:00,2.3799999999999955,184.43,188.95,187.26999999999995,188.95
2024-03-29 05:15:00,1.5200000000000387,185.61999999999995,188.66000000000003,184.43,188.95
2024-03-29 05:30:00,4.0,185.61999999999995,188.66000000000003,185.61999999999995,188.66000000000003
2024-03-29 05:45:00,3.159999999999968,186.77000000000004,193.08999999999997,185.61999999999995,188.66000000000003
2024-03-29 06:00:00,3.099999999999966,187.74000000000004,193.08999999999997,186.77000000000004,193.08999999999997
2024-03-29 06:15:00,2.0,188.17,192.17,187.74000000000004,193.08999999999997
2024-03-29 06:30:00,1.8799999999999955,188.17,191.51,188.17,192.17
2024-03-29 06:45:00,1.8199999999999932,188.17,191.45,188.17,191.51
2024-03-29 07:00:00,2.0600000000000023,188.17,190.73,188.17,191.45
2024-03-29 07:15:00,1.8199999999999932,188.17,190.73,188.17,190.73
2024-03-29 07:30:00,2.819999999999993,188.17,190.70999999999998,188.17,190.73
2024-03-29 07:45:00,2.1200000000000045,186.53,190.70999999999998,188.17,190.70999999999998
2024-03-29 08:00:00,2.859999999999957,186.56000000000003,190.70999999999998,186.53,190.70999999999998
2024-03-29 08:15:00,2.7200000000000273,187.30999999999997,190.70999999999998,186.56000000000003,190.70999999999998
2024-03-29 08:30:00,2.340000000000032,187.55999999999997,190.70999999999998,187.30999999999997,190.70999999999998
2024-03-29 08:45:00,2.8600000000000136,187.55999999999997,190.70999999999998,187.55999999999997,190.70999999999998
2024-03-29 09:00:00,2.259999999999991,187.55999999999997,190.70999999999998,187.55999999999997,190.70999999999998
2024-03-29 09:15:00,2.1999999999999886,187.55999999999997,190.07999999999998,187.55999999999997,190.70999999999998
2024-03-29 09:30:00,4.759999999999991,187.55999999999997,190.07999999999998,187.55999999999997,190.07999999999998
2024-03-29 09:45:00,2.0,187.55999999999997,190.07999999999998,187.55999999999997,190.07999999999998
2024-03-29 10:00:00,2.420000000000016,187.55999999999997,190.07999999999998,187.55999999999997,190.07999999999998
2024-03-29 10:15:00,3.4799999999999613,187.55999999999997,190.07999999999998,187.55999999999997,190.07999999999998
2024-03-29 10:30:00,1.6800000000000068,187.55999999999997,190.07,187.55999999999997,190.07999999999998
2024-03-29 10:45:00,1.6399999999999864,187.55999999999997,189.98,187.55999999999997,190.07
2024-03-29 11:00:00,1.5200000000000387,187.55999999999997,189.52000000000004,187.55999999999997,189.98
2024-03-29 11:15:00,2.1200000000000045,187.55999999999997,189.52000000000004,187.55999999999997,189.52000000000004
2024-03-29 11:30:00,1.6999999999999886,187.55999999999997,189.52000000000004,187.55999999999997,189.52000000000004
2024-03-29 11:45:00,3.4600000000000364,187.55999999999997,189.52000000000004,187.55999999999997,189.52000000000004
2024-03-29 12:00:00,1.5600000000000023,187.55999999999997,189.37,187.55999999999997,189.52000000000004
2024-03-29 12:15:00,3.019999999999982,187.55999999999997,189.37,187.55999999999997,189.37
2024-03-29 12:30:00,1.259999999999991,184.92000000000002,187.44,187.55999999999997,189.37
2024-03-29 12:45:00,1.1399999999999864,184.92000000000002,187.16,184.92000000000002,187.44
2024-03-29 13:00:00,2.019999999999982,184.92000000000002,187.16,184.92000000000002,187.16
2024-03-29 13:15:00,0.9200000000000159,185.42,187.16,184.92000000000002,187.16
2024-03-29 13:30:00,1.6200000000000045,185.42,187.16,185.42,187.16
2024-03-29 13:45:00,1.1999999999999886,185.42,187.16,185.42,187.16
2024-03-29 14:00:00,1.6200000000000045,185.42,187.16,185.42,187.16
2024-03-29 14:15:00,1.4800000000000182,185.42,187.16,185.42,187.16
2024-03-29 14:30:00,4.340000000000032,185.42,187.16,185.42,187.16
2024-03-29 14:45:00,3.0200000000000387,180.60999999999996,186.65000000000003,185.42,187.16
2024-03-29 15:00:00,3.1200000000000045,181.82,186.65000000000003,180.60999999999996,186.65000000000003
2024-03-29 15:15:00,0.6200000000000045,184.46,185.70000000000002,181.82,186.65000000000003
2024-03-29 15:30:00,1.4399999999999977,184.46,185.70000000000002,184.46,185.70000000000002
2024-03-29 15:45:00,1.5400000000000205,184.46,185.70000000000002,184.46,185.70000000000002
2024-03-29 16:00:00,1.240000000000009,184.46,185.70000000000002,184.46,185.70000000000002
2024-03-29 16:15:00,1.5399999999999636,184.46,185.70000000000002,184.46,185.70000000000002
2024-03-29 16:30:00,3.0,184.46,185.70000000000002,184.46,185.70000000000002
2024-03-29 16:45:00,1.4599999999999795,182.31000000000003,185.23,184.46,185.70000000000002
2024-03-29 17:00:00,2.920000000000016,182.31000000000003,185.23,182.31000000000003,185.23
2024-03-29 17:15:00,1.1200000000000045,183.69,185.23,182.31000000000003,185.23
2024-03-29 17:30:00,1.1999999999999886,183.69,185.23,183.69,185.23
2024-03-29 17:45:00,2.5400000000000205,183.69,185.23,183.69,185.23
2024-03-29 18:00:00,1.420000000000016,184.55999999999997,187.4,183.69,185.23
2024-03-29 18:15:00,1.1200000000000045,185.01,187.25,184.55999999999997,187.4
2024-03-29 18:30:00,1.1399999999999864,185.01,186.92999999999998,185.01,187.25
2024-03-29 18:45:00,1.1999999999999886,185.01,186.92999999999998,185.01,186.92999999999998
2024-03-29 19:00:00,2.759999999999991,185.01,186.92999999999998,185.01,186.92999999999998
2024-03-29 19:15:00,2.5,185.01,186.92999999999998,185.01,186.92999999999998
2024-03-29 19:30:00,2.3799999999999955,185.01,186.92999999999998,185.01,186.92999999999998
2024-03-29 19:45:00,1.839999999999975,185.01,186.92999999999998,185.01,186.92999999999998
2024-03-29 20:00:00,2.079999999999984,185.01,186.92999999999998,185.01,186.92999999999998
2024-03-29 20:15:00,2.319999999999993,185.01,186.92999999999998,185.01,186.92999999999998
2024-03-29 20:30:00,2.7199999999999704,185.01,186.92999999999998,185.01,186.92999999999998
2024-03-29 20:45:00,1.599999999999966,185.25000000000003,186.92999999999998,185.01,186.92999999999998
2024-03-29 21:00:00,3.480000000000018,185.25000000000003,186.92999999999998,185.25000000000003,186.92999999999998
2024-03-29 21:15:00,2.1200000000000045,185.88,190.12,185.25000000000003,186.92999999999998
2024-03-29 21:30:00,5.0400000000000205,185.88,190.12,185.88,190.12
2024-03-29 21:45:00,3.2799999999999727,185.88,190.12,185.88,190.12
2024-03-29 22:00:00,2.4599999999999795,185.88,190.12,185.88,190.12
2024-03-29 22:15:00,3.1999999999999886,185.88,190.12,185.88,190.12
2024-03-29 22:30:00,5.920000000000016,185.88,190.12,185.88,190.12
2024-03-29 22:45:00,2.920000000000016,181.98999999999998,187.83,185.88,190.12
2024-03-29 23:00:00,3.400000000000034,182.75999999999996,187.83,181.98999999999998,187.83
2024-03-29 23:15:00,2.1999999999999886,183.97,187.83,182.75999999999996,187.83
2024-03-29 23:30:00,1.839999999999975,184.34000000000003,187.83,183.97,187.83
2024-03-29 23:45:00,4.319999999999993,184.34000000000003,187.83,184.34000000000003,187.83
2024-03-30 00:00:00,2.9399999999999977,184.34000000000003,187.83,184.34000000000003,187.83
2024-03-30 00:15:00,1.759999999999991,184.34000000000003,187.04999999999998,184.34000000000003,187.83
2024-03-30 00:30:00,2.079999999999984,184.34000000000003,187.04999999999998,184.34000000000003,187.04999999999998
2024-03-30 00:45:00,2.400000000000034,184.34000000000003,187.04999999999998,184.34000000000003,187.04999999999998
2024-03-30 01:00:00,1.5399999999999636,184.57000000000005,187.04999999999998,184.34000000000003,187.04999999999998
2024-03-30 01:15:00,1.8999999999999773,184.57000000000005,187.04999999999998,184.57000000000005,187.04999999999998
2024-03-30 01:30:00,1.579999999999984,184.71,187.04999999999998,184.57000000000005,187.04999999999998
2024-03-30 01:45:00,0.8799999999999955,185.31,187.04999999999998,184.71,187.04999999999998
2024-03-30 02:00:00,1.1800000000000068,185.31,187.04999999999998,185.31,187.04999999999998
2024-03-30 02:15:00,1.7999999999999545,185.31,187.04999999999998,185.31,187.04999999999998
2024-03-30 02:30:00,1.1200000000000045,185.31,187.04999999999998,185.31,187.04999999999998
2024-03-30 02:45:00,2.8600000000000136,185.31,187.04999999999998,185.31,187.04999999999998
2024-03-30 03:00:00,2.259999999999991,185.96,190.48,185.31,187.04999999999998
2024-03-30 03:15:00,3.359999999999957,186.09000000000003,190.48,185.96,190.48
2024-03-30 03:30:00,2.420000000000016,186.41,190.48,186.09000000000003,190.48
2024-03-30 03:45:00,2.259999999999991,187.37,190.48,186.41,190.48
2024-03-30 04:00:00,2.0,187.37,190.48,187.37,190.48
2024-03-30 04:15:00,3.2799999999999727,187.37,190.48,187.37,190.48
2024-03-30 04:30:00,3.7399999999999523,187.37,190.48,187.37,190.48
2024-03-30 04:45:00,1.8000000000000114,187.37,190.3,187.37,190.48
2024-03-30 05:00:00,2.5600000000000023,187.37,190.3,187.37,190.3
2024-03-30 05:15:00,4.600000000000023,187.37,190.3,187.37,190.3
2024-03-30 05:30:00,2.579999999999984,189.17000000000002,194.32999999999998,187.37,190.3
2024-03-30 05:45:00,1.3400000000000318,190.89999999999998,193.58000000000004,189.17000000000002,194.32999999999998
2024-03-30 06:00:00,1.8600000000000136,190.89999999999998,193.58000000000004,190.89999999999998,193.58000000000004
2024-03-30 06:15:00,2.2799999999999727,190.89999999999998,193.58000000000004,190.89999999999998,193.58000000000004
2024-03-30 06:30:00,2.400000000000034,190.89999999999998,193.58000000000004,190.89999999999998,193.58000000000004
2024-03-30 06:45:00,1.2800000000000296,190.89999999999998,193.29000000000002,190.89999999999998,193.58000000000004
2024-03-30 07:00:00,2.6199999999999477,190.89999999999998,193.29000000000002,190.89999999999998,193.29000000000002
2024-03-30 07:15:00,1.9799999999999613,190.89999999999998,193.19999999999996,190.89999999999998,193.29000000000002
2024-03-30 07:30:00,2.1000000000000227,190.89999999999998,193.19999999999996,190.89999999999998,193.19999999999996
2024-03-30 07:45:00,4.8799999999999955,190.89999999999998,193.19999999999996,190.89999999999998,193.19999999999996
2024-03-30 08:00:00,2.819999999999993,190.89999999999998,196.12,190.89999999999998,193.19999999999996
2024-03-30 08:15:00,1.9600000000000364,191.01999999999995,194.94000000000003,190.89999999999998,196.12
2024-03-30 08:30:00,2.4399999999999977,191.01999999999995,194.94000000000003,191.01999999999995,194.94000000000003
2024-03-30 08:45:00,1.4399999999999977,191.01999999999995,193.76,191.01999999999995,194.94000000000003
2024-03-30 09:00:00,1.4600000000000364,191.01999999999995,193.55000000000004,191.01999999999995,193.76
2024-03-30 09:15:00,1.5600000000000023,191.01999999999995,193.33,191.01999999999995,193.55000000000004
2024-03-30 09:30:00,0.9800000000000182,191.07999999999998,193.04000000000002,191.01999999999995,193.33
2024-03-30 09:45:00,1.1000000000000227,191.07999999999998,193.04000000000002,191.07999999999998,193.04000000000002
2024-03-30 10:00:00,2.1399999999999864,191.07999999999998,193.04000000000002,191.07999999999998,193.04000000000002
2024-03-30 10:15:00,1.900000000000034,191.07999999999998,193.04000000000002,191.07999999999998,193.04000000000002
2024-03-30 10:30:00,1.240000000000009,191.29999999999998,193.04000000000002,191.07999999999998,193.04000000000002
2024-03-30 10:45:00,2.0,191.29999999999998,193.04000000000002,191.29999999999998,193.04000000000002
2024-03-30 11:00:00,0.9200000000000159,192.1,193.04000000000002,191.29999999999998,193.04000000000002
2024-03-30 11:15:00,4.0,192.1,193.04000000000002,192.1,193.04000000000002
2024-03-30 11:30:00,4.0,192.29,200.29,192.1,193.04000000000002
2024-03-30 11:45:00,4.439999999999998,193.92000000000002,200.29,192.29,200.29
2024-03-30 12:00:00,4.279999999999973,193.92000000000002,200.29,193.92000000000002,200.29
2024-03-30 12:15:00,3.1199999999999477,194.99000000000007,200.29,193.92000000000002,200.29
2024-03-30 12:30:00,4.399999999999977,194.99000000000007,200.29,194.99000000000007,200.29
2024-03-30 12:45:00,1.5,197.17,200.17,194.99000000000007,200.29
2024-03-30 13:00:00,2.819999999999993,197.17,200.17,197.17,200.17
2024-03-30 13:15:00,3.340000000000032,197.17,200.17,197.17,200.17
2024-03-30 13:30:00,4.240000000000009,197.17,200.17,197.17,200.17
2024-03-30 13:45:00,3.2200000000000273,197.17,200.17,197.17,200.17
2024-03-30 14:00:00,2.159999999999968,197.17,200.17,197.17,200.17
2024-03-30 14:15:00,3.980000000000018,197.17,200.17,197.17,200.17
2024-03-30 14:30:00,1.660000000000025,195.20999999999998,198.53000000000003,197.17,200.17
2024-03-30 14:45:00,3.240000000000009,195.20999999999998,198.53000000000003,195.20999999999998,198.53000000000003
2024-03-30 15:00:00,1.8799999999999955,195.20999999999998,198.26999999999998,195.20999999999998,198.53000000000003
2024-03-30 15:15:00,2.480000000000018,195.20999999999998,198.04000000000002,195.20999999999998,198.26999999999998
2024-03-30 15:30:00,4.740000000000009,195.20999999999998,198.04000000000002,195.20999999999998,198.04000000000002
2024-03-30 15:45:00,2.6200000000000045,191.99,197.23000000000002,195.20999999999998,198.04000000000002
2024-03-30 16:00:00,1.160000000000025,193.70999999999998,196.03000000000003,191.99,197.23000000000002
2024-03-30 16:15:00,2.159999999999968,193.78000000000003,196.03000000000003,193.70999999999998,196.03000000000003
2024-03-30 16:30:00,1.9399999999999977,194.47,196.03000000000003,193.78000000000003,196.03000000000003
2024-03-30 16:45:00,1.839999999999975,194.47,197.79999999999998,194.47,196.03000000000003
2024-03-30 17:00:00,1.660000000000025,194.71999999999997,197.79999999999998,194.47,197.79999999999998
2024-03-30 17:15:00,1.1999999999999886,195.17000000000002,197.57,194.71999999999997,197.79999999999998
2024-03-30 17:30:00,1.3000000000000114,195.17000000000002,197.35000000000002,195.17000000000002,197.57
2024-03-30 17:45:00,1.3400000000000318,195.17000000000002,197.33000000000004,195.17000000000002,197.35000000000002
2024-03-30 18:00:00,1.419999999999959,195.17000000000002,197.33000000000004,195.17000000000002,197.33000000000004
2024-03-30 18:15:00,1.759999999999991,195.17000000000002,197.33000000000004,195.17000000000002,197.33000000000004
2024-03-30 18:30:00,1.2399999999999523,195.95000000000005,197.33000000000004,195.17000000000002,197.33000000000004
2024-03-30 18:45:00,3.240000000000009,195.95000000000005,197.33000000000004,195.95000000000005,197.33000000000004
2024-03-30 19:00:00,3.0,195.95000000000005,200.62,195.95000000000005,197.33000000000004
2024-03-30 19:15:00,2.3000000000000114,195.95000000000005,200.21,195.95000000000005,200.62
2024-03-30 19:30:00,2.0,195.95000000000005,199.24,195.95000000000005,200.21
2024-03-30 19:45:00,1.9800000000000182,195.99999999999997,199.24,195.95000000000005,199.24
2024-03-30 20:00:00,2.660000000000025,195.99999999999997,199.24,195.99999999999997,199.24
2024-03-30 20:15:00,1.6000000000000227,195.99999999999997,198.33,195.99999999999997,199.24
2024-03-30 20:30:00,2.6999999999999886,195.99999999999997,198.33,195.99999999999997,198.33
2024-03-30 20:45:00,1.1399999999999864,196.0,198.27999999999997,195.99999999999997,198.33
2024-03-30 21:00:00,1.3799999999999955,196.0,198.27999999999997,196.0,198.27999999999997
2024-03-30 21:15:00,1.8199999999999932,196.0,198.27999999999997,196.0,198.27999999999997
2024-03-30 21:30:00,2.819999999999993,196.0,198.27999999999997,196.0,198.27999999999997
2024-03-30 21:45:00,2.0,193.9,197.9,196.0,198.27999999999997
2024-03-30 22:00:00,1.8000000000000114,194.89,197.9,193.9,197.9
2024-03-30 22:15:00,2.3600000000000136,194.89,197.9,194.89,197.9
2024-03-30 22:30:00,2.1399999999999864,194.89,197.9,194.89,197.9
2024-03-30 22:45:00,0.9000000000000341,195.38999999999996,197.19000000000003,194.89,197.9
2024-03-30 23:00:00,1.8799999999999955,195.38999999999996,197.19000000000003,195.38999999999996,197.19000000000003
2024-03-30 23:15:00,2.6000000000000227,195.38999999999996,197.19000000000003,195.38999999999996,197.19000000000003
2024-03-30 23:30:00,2.079999999999984,195.38999999999996,197.19000000000003,195.38999999999996,197.19000000000003
2024-03-30 23:45:00,2.6399999999999864,195.38999999999996,197.19000000000003,195.38999999999996,197.19000000000003
2024-03-31 00:00:00,2.099999999999966,195.38999999999996,198.75999999999996,195.38999999999996,197.19000000000003
2024-03-31 00:15:00,1.7799999999999727,195.71000000000004,198.75999999999996,195.38999999999996,198.75999999999996
2024-03-31 00:30:00,1.3799999999999955,195.98000000000002,198.74,195.71000000000004,198.75999999999996
2024-03-31 00:45:00,1.3000000000000114,195.98000000000002,198.23000000000002,195.98000000000002,198.74
2024-03-31 01:00:00,1.0400000000000205,195.98000000000002,197.64000000000001,195.98000000000002,198.23000000000002
2024-03-31 01:15:00,1.240000000000009,195.98000000000002,197.64000000000001,195.98000000000002,197.64000000000001
2024-03-31 01:30:00,1.8000000000000114,195.98000000000002,197.64000000000001,195.98000000000002,197.64000000000001
2024-03-31 01:45:00,1.82000000000005,195.98000000000002,197.49000000000004,195.98000000000002,197.64000000000001
2024-03-31 02:00:00,4.560000000000002,189.22,197.49000000000004,195.98000000000002,197.49000000000004
2024-03-31 02:15:00,2.6200000000000045,192.13,197.37,189.22,197.49000000000004
2024-03-31 02:30:00,2.2200000000000273,193.22999999999996,197.37,192.13,197.37
2024-03-31 02:45:00,1.099999999999966,194.35000000000002,196.54999999999995,193.22999999999996,197.37
2024-03-31 03:00:00,2.4599999999999795,194.35000000000002,196.54999999999995,194.35000000000002,196.54999999999995
2024-03-31 03:15:00,0.9200000000000159,194.73999999999998,196.54999999999995,194.35000000000002,196.54999999999995
2024-03-31 03:30:00,2.319999999999993,194.73999999999998,196.54999999999995,194.73999999999998,196.54999999999995
2024-03-31 03:45:00,0.8199999999999932,194.73999999999998,195.6,194.73999999999998,196.54999999999995
2024-03-31 04:00:00,2.6000000000000227,194.73999999999998,195.6,194.73999999999998,195.6
2024-03-31 04:15:00,1.660000000000025,192.37999999999997,195.6,194.73999999999998,195.6
2024-03-31 04:30:00,2.819999999999993,192.37999999999997,195.6,192.37999999999997,195.6
2024-03-31 04:45:00,2.5,192.67,195.6,192.37999999999997,195.6
2024-03-31 05:00:00,1.5,193.61,195.6,192.67,195.6
2024-03-31 05:15:00,3.8000000000000114,193.61,195.6,193.61,195.6
2024-03-31 05:30:00,2.0200000000000387,193.70999999999995,197.75000000000003,193.61,195.6
2024-03-31 05:45:00,1.4599999999999795,194.72000000000003,197.64,193.70999999999995,197.75000000000003
2024-03-31 06:00:00,1.740000000000009,194.72000000000003,197.15,194.72000000000003,197.64
2024-03-31 06:15:00,4.520000000000039,194.72000000000003,197.15,194.72000000000003,197.15
2024-03-31 06:30:00,2.4400000000000546,191.49999999999994,196.38000000000005,194.72000000000003,197.15
2024-03-31 06:45:00,1.3799999999999955,192.82,195.57999999999998,191.49999999999994,196.38000000000005
2024-03-31 07:00:00,3.080000000000041,192.82,195.57999999999998,192.82,195.57999999999998
2024-03-31 07:15:00,1.9400000000000546,194.15999999999994,195.57999999999998,192.82,195.57999999999998
2024-03-31 07:30:00,1.6800000000000068,194.15999999999994,197.49,194.15999999999994,195.57999999999998
2024-03-31 07:45:00,1.6000000000000227,194.15999999999994,196.84000000000003,194.15999999999994,197.49
2024-03-31 08:00:00,3.420000000000016,194.15999999999994,196.84000000000003,194.15999999999994,196.84000000000003
2024-03-31 08:15:00,1.8600000000000136,194.15999999999994,196.84000000000003,194.15999999999994,196.84000000000003
2024-03-31 08:30:00,1.7200000000000273,194.40999999999997,196.84000000000003,194.15999999999994,196.84000000000003
2024-03-31 08:45:00,2.3600000000000136,194.51,196.84000000000003,194.40999999999997,196.84000000000003
2024-03-31 09:00:00,2.079999999999984,195.00000000000003,199.16,194.51,196.84000000000003
2024-03-31 09:15:00,1.1200000000000045,195.78,198.02,195.00000000000003,199.16
2024-03-31 09:30:00,2.3799999999999955,195.78,198.02,195.78,198.02
2024-03-31 09:45:00,1.420000000000016,194.11999999999998,196.96,195.78,198.02
2024-03-31 10:00:00,2.0600000000000023,194.11999999999998,196.87,194.11999999999998,196.96
2024-03-31 10:15:00,2.3600000000000136,194.11999999999998,196.57000000000002,194.11999999999998,196.87
2024-03-31 10:30:00,1.6399999999999864,194.11999999999998,196.29999999999998,194.11999999999998,196.57000000000002
2024-03-31 10:45:00,1.2200000000000273,194.11999999999998,195.51000000000002,194.11999999999998,196.29999999999998
2024-03-31 11:00:00,1.099999999999966,194.11999999999998,195.51000000000002,194.11999999999998,195.51000000000002
2024-03-31 11:15:00,1.6800000000000068,194.11999999999998,195.51000000000002,194.11999999999998,195.51000000000002
2024-03-31 11:30:00,1.1399999999999864,194.11999999999998,195.51000000000002,194.11999999999998,195.51000000000002
2024-03-31 11:45:00,2.0400000000000205,194.11999999999998,195.51000000000002,194.11999999999998,195.51000000000002
2024-03-31 12:00:00,2.240000000000009,194.11999999999998,195.51000000000002,194.11999999999998,195.51000000000002
2024-03-31 12:15:00,1.420000000000016,194.79,197.63000000000002,194.11999999999998,195.51000000000002
2024-03-31 12:30:00,1.2600000000000477,194.79,197.20000000000005,194.79,197.63000000000002
2024-03-31 12:45:00,1.5399999999999636,194.97000000000003,197.20000000000005,194.79,197.20000000000005
2024-03-31 13:00:00,1.7800000000000296,194.97000000000003,197.20000000000005,194.97000000000003,197.20000000000005
2024-03-31 13:15:00,1.2399999999999523,194.97000000000003,196.79999999999995,194.97000000000003,197.20000000000005
2024-03-31 13:30:00,1.0199999999999818,194.97000000000003,196.46999999999997,194.97000000000003,196.79999999999995
2024-03-31 13:45:00,1.8799999999999955,194.97000000000003,196.46999999999997,194.97000000000003,196.46999999999997
2024-03-31 14:00:00,1.2800000000000296,194.97000000000003,196.46999999999997,194.97000000000003,196.46999999999997
2024-03-31 14:15:00,1.240000000000009,194.97000000000003,196.46999999999997,194.97000000000003,196.46999999999997
2024-03-31 14:30:00,1.400000000000034,194.97000000000003,196.46999999999997,194.97000000000003,196.46999999999997
2024-03-31 14:45:00,3.5,194.97000000000003,196.46999999999997,194.97000000000003,196.46999999999997
2024-03-31 15:00:00,0.9399999999999977,195.95,197.82999999999998,194.97000000000003,196.46999999999997
2024-03-31 15:15:00,2.2199999999999704,195.95,197.82999999999998,195.95,197.82999999999998
2024-03-31 15:30:00,1.1000000000000227,195.95,197.32000000000002,195.95,197.82999999999998
2024-03-31 15:45:00,2.1200000000000045,195.95,197.32000000000002,195.95,197.32000000000002
2024-03-31 16:00:00,1.920000000000016,195.95,197.32000000000002,195.95,197.32000000000002
2024-03-31 16:15:00,1.7200000000000273,195.95,197.32000000000002,195.95,197.32000000000002
2024-03-31 16:30:00,1.3000000000000114,195.95,197.32000000000002,195.95,197.32000000000002
2024-03-31 16:45:00,0.8799999999999955,195.95,197.32000000000002,195.95,197.32000000000002
2024-03-31 17:00:00,0.5999999999999659,196.22000000000003,197.32000000000002,195.95,197.32000000000002
2024-03-31 17:15:00,0.5600000000000023,196.22000000000003,197.32000000000002,196.22000000000003,197.32000000000002
2024-03-31 17:30:00,1.2199999999999704,196.22000000000003,197.32000000000002,196.22000000000003,197.32000000000002
2024-03-31 17:45:00,1.740000000000009,196.22000000000003,197.32000000000002,196.22000000000003,197.32000000000002
2024-03-31 18:00:00,1.1200000000000045,195.38,197.32000000000002,196.22000000000003,197.32000000000002
2024-03-31 18:15:00,1.1200000000000045,195.38,197.16,195.38,197.32000000000002
2024-03-31 18:30:00,1.2199999999999704,195.38,196.99999999999997,195.38,197.16
2024-03-31 18:45:00,1.2800000000000296,195.38,196.99999999999997,195.38,196.99999999999997
2024-03-31 19:00:00,1.580000000000041,195.38,196.99999999999997,195.38,196.99999999999997
2024-03-31 19:15:00,1.920000000000016,195.38,196.99999999999997,195.38,196.99999999999997
2024-03-31 19:30:00,1.579999999999984,195.38,196.99999999999997,195.38,196.99999999999997
2024-03-31 19:45:00,1.3400000000000318,195.38,196.99999999999997,195.38,196.99999999999997
2024-03-31 20:00:00,1.3999999999999773,195.38,196.99999999999997,195.38,196.99999999999997
2024-03-31 20:15:00,0.6200000000000045,196.14,196.99999999999997,195.38,196.99999999999997
2024-03-31 20:30:00,1.5,196.14,196.99999999999997,196.14,196.99999999999997
2024-03-31 20:45:00,1.9399999999999977,196.14,198.96,196.14,196.99999999999997
2024-03-31 21:00:00,2.159999999999968,196.14,198.96,196.14,198.96
2024-03-31 21:15:00,1.2799999999999727,196.14,198.14,196.14,198.96
2024-03-31 21:30:00,0.8799999999999955,196.14,197.35,196.14,198.14
2024-03-31 21:45:00,1.1599999999999682,196.14,197.35,196.14,197.35
2024-03-31 22:00:00,1.0400000000000205,196.14,196.97000000000003,196.14,197.35
2024-03-31 22:15:00,1.3600000000000136,194.57999999999998,196.97000000000003,196.14,196.97000000000003
2024-03-31 22:30:00,1.1000000000000227,194.57999999999998,196.76000000000002,194.57999999999998,196.97000000000003
2024-03-31 22:45:00,0.6800000000000068,195.01,196.37,194.57999999999998,196.76000000000002
2024-03-31 23:00:00,1.1200000000000045,195.01,196.37,195.01,196.37
2024-03-31 23:15:00,1.400000000000034,195.01,196.37,195.01,196.37
2024-03-31 23:30:00,1.5600000000000023,195.01,196.37,195.01,196.37
2024-03-31 23:45:00,1.0,195.36,197.36,195.01,196.37
2024-04-01 00:00:00,1.6200000000000045,195.36,197.36,195.36,197.36
2024-04-01 00:15:00,1.0600000000000023,195.96,197.36,195.36,197.36
2024-04-01 00:30:00,0.7799999999999727,196.11,197.36,195.96,197.36
2024-04-01 00:45:00,0.7799999999999727,196.11,197.36,196.11,197.36
2024-04-01 01:00:00,1.3799999999999955,196.11,197.36,196.11,197.36
2024-04-01 01:15:00,1.919999999999959,196.11,197.36,196.11,197.36
2024-04-01 01:30:00,2.1000000000000227,196.11,197.36,196.11,197.36
2024-04-01 01:45:00,2.900000000000034,196.11,201.23000000000005,196.11,197.36
2024-04-01 02:00:00,3.8999999999999773,196.11,201.23000000000005,196.11,201.23000000000005
2024-04-01 02:15:00,3.019999999999982,196.97000000000003,201.23000000000005,196.11,201.23000000000005
2024-04-01 02:30:00,1.6999999999999886,198.49,201.23000000000005,196.97000000000003,201.23000000000005
2024-04-01 02:45:00,2.519999999999982,198.49,201.23000000000005,198.49,201.23000000000005
2024-04-01 03:00:00,1.1800000000000068,198.79999999999998,201.16,198.49,201.23000000000005
2024-04-01 03:15:00,3.079999999999984,198.79999999999998,201.16,198.79999999999998,201.16
2024-04-01 03:30:00,1.7000000000000455,198.79999999999998,200.38000000000005,198.79999999999998,201.16
2024-04-01 03:45:00,2.5,196.93,200.38000000000005,198.79999999999998,200.38000000000005
2024-04-01 04:00:00,0.9399999999999977,198.2,200.07999999999998,196.93,200.38000000000005
2024-04-01 04:15:00,1.339999999999975,198.2,200.07999999999998,198.2,200.07999999999998
2024-04-01 04:30:00,1.5399999999999636,198.2,200.07999999999998,198.2,200.07999999999998
2024-04-01 04:45:00,1.0199999999999818,198.68,200.07999999999998,198.2,200.07999999999998
2024-04-01 05:00:00,0.8999999999999773,198.84000000000003,200.07999999999998,198.68,200.07999999999998
2024-04-01 05:15:00,1.919999999999959,198.84000000000003,200.07999999999998,198.84000000000003,200.07999999999998
2024-04-01 05:30:00,2.1999999999999886,198.84000000000003,202.66,198.84000000000003,200.07999999999998
2024-04-01 05:45:00,1.3199999999999932,199.3,201.94,198.84000000000003,202.66
2024-04-01 06:00:00,1.4399999999999977,199.44,201.94,199.3,201.94
2024-04-01 06:15:00,3.1399999999999864,199.44,201.94,199.44,201.94
2024-04-01 06:30:00,2.9599999999999795,200.04000000000002,205.95999999999998,199.44,201.94
2024-04-01 06:45:00,1.6800000000000068,200.76999999999998,204.13,200.04000000000002,205.95999999999998
2024-04-01 07:00:00,2.0600000000000023,200.76999999999998,203.78,200.76999999999998,204.13
2024-04-01 07:15:00,1.1200000000000045,200.78,203.02,200.76999999999998,203.78
2024-04-01 07:30:00,2.1200000000000045,200.78,203.02,200.78,203.02
2024-04-01 07:45:00,2.5,200.78,203.02,200.78,203.02
2024-04-01 08:00:00,1.740000000000009,200.81,203.02,200.78,203.02
2024-04-01 08:15:00,3.919999999999959,200.81,203.02,200.81,203.02
2024-04-01 08:30:00,3.5200000000000387,200.81,206.22000000000003,200.81,203.02
2024-04-01 08:45:00,2.5,200.81,205.6,200.81,206.22000000000003
2024-04-01 09:00:00,2.5200000000000387,200.81,205.02000000000004,200.81,205.6
2024-04-01 09:15:00,1.900000000000034,201.48999999999995,205.02000000000004,200.81,205.02000000000004
2024-04-01 09:30:00,2.180000000000007,201.48999999999995,205.02000000000004,201.48999999999995,205.02000000000004
2024-04-01 09:45:00,1.099999999999966,201.57000000000002,203.76999999999995,201.48999999999995,205.02000000000004
2024-04-01 10:00:00,1.599999999999966,201.57000000000002,203.76999999999995,201.57000000000002,203.76999999999995
2024-04-01 10:15:00,2.759999999999991,201.57000000000002,203.76999999999995,201.57000000000002,203.76999999999995
2024-04-01 10:30:00,1.9399999999999977,201.57000000000002,203.76999999999995,201.57000000000002,203.76999999999995
2024-04-01 10:45:00,1.920000000000016,201.57000000000002,203.76999999999995,201.57000000000002,203.76999999999995
2024-04-01 11:00:00,1.9600000000000364,201.57000000000002,203.76999999999995,201.57000000000002,203.76999999999995
2024-04-01 11:15:00,3.0400000000000205,201.57000000000002,203.76999999999995,201.57000000000002,203.76999999999995
2024-04-01 11:30:00,2.7000000000000455,201.57000000000002,203.76999999999995,201.57000000000002,203.76999999999995
2024-04-01 11:45:00,5.759999999999991,201.57000000000002,203.76999999999995,201.57000000000002,203.76999999999995
2024-04-01 12:00:00,3.099999999999966,197.54000000000002,203.73999999999995,201.57000000000002,203.76999999999995
2024-04-01 12:15:00,2.480000000000018,197.54000000000002,202.34000000000003,197.54000000000002,203.73999999999995
2024-04-01 12:30:00,2.5,197.54000000000002,201.75,197.54000000000002,202.34000000000003
2024-04-01 12:45:00,12.300000000000011,197.54000000000002,201.75,197.54000000000002,201.75
2024-04-01 13:00:00,5.160000000000025,191.29999999999998,201.62000000000003,197.54000000000002,201.75
2024-04-01 13:15:00,3.1000000000000227,193.51999999999998,199.72000000000003,191.29999999999998,201.62000000000003
2024-04-01 13:30:00,3.759999999999991,193.94,199.72000000000003,193.51999999999998,199.72000000000003
2024-04-01 13:45:00,2.259999999999991,195.95000000000002,199.72000000000003,193.94,199.72000000000003
2024-04-01 14:00:00,2.5,196.49,199.72000000000003,195.95000000000002,199.72000000000003
2024-04-01 14:15:00,1.8000000000000114,197.28,199.72000000000003,196.49,199.72000000000003
2024-04-01 14:30:00,2.839999999999975,197.28,199.72000000000003,197.28,199.72000000000003
2024-04-01 14:45:00,1.5,197.28,199.46,197.28,199.72000000000003
2024-04-01 15:00:00,3.7200000000000273,197.28,199.46,197.28,199.46
2024-04-01 15:15:00,2.5400000000000205,193.64,198.72000000000003,197.28,199.46
2024-04-01 15:30:00,3.980000000000018,193.64,198.72000000000003,193.64,198.72000000000003
2024-04-01 15:45:00,2.259999999999991,194.19,198.70999999999998,193.64,198.72000000000003
2024-04-01 16:00:00,2.900000000000034,194.77999999999997,198.70999999999998,194.19,198.70999999999998
2024-04-01 16:15:00,1.5199999999999818,195.94000000000003,198.70999999999998,194.77999999999997,198.70999999999998
2024-04-01 16:30:00,1.3799999999999955,195.95000000000002,198.70999999999998,195.94000000000003,198.70999999999998
2024-04-01 16:45:00,2.3600000000000136,195.95000000000002,198.70999999999998,195.95000000000002,198.70999999999998
2024-04-01 17:00:00,1.420000000000016,195.95000000000002,198.37,195.95000000000002,198.70999999999998
2024-04-01 17:15:00,4.460000000000036,195.95000000000002,198.37,195.95000000000002,198.37
2024-04-01 17:30:00,1.9599999999999795,193.49,197.40999999999997,195.95000000000002,198.37
2024-04-01 17:45:00,2.259999999999991,194.19,197.40999999999997,193.49,197.40999999999997
2024-04-01 18:00:00,2.3000000000000114,194.79999999999998,197.40999999999997,194.19,197.40999999999997
2024-04-01 18:15:00,2.660000000000025,194.79999999999998,197.40999999999997,194.79999999999998,197.40999999999997
2024-04-01 18:30:00,1.5,194.79999999999998,197.36,194.79999999999998,197.40999999999997
